# BB temperature (K); Intensity through filter (ph/s/m^2/mas^2)
1.000000000000000000e+01 0.000000000000000000e+00
1.100000000000000000e+01 0.000000000000000000e+00
1.200000000000000000e+01 0.000000000000000000e+00
1.300000000000000000e+01 0.000000000000000000e+00
1.400000000000000000e+01 0.000000000000000000e+00
1.500000000000000000e+01 0.000000000000000000e+00
1.600000000000000000e+01 0.000000000000000000e+00
1.700000000000000000e+01 0.000000000000000000e+00
1.800000000000000000e+01 0.000000000000000000e+00
1.900000000000000000e+01 0.000000000000000000e+00
2.000000000000000000e+01 0.000000000000000000e+00
2.100000000000000000e+01 1.431947729258603772e-14
2.200000000000000000e+01 1.002226613420063241e-13
2.300000000000000000e+01 5.932997475018322192e-13
2.400000000000000000e+01 3.033129895552968746e-12
2.500000000000000000e+01 1.362740840269241703e-11
2.600000000000000000e+01 5.461004134088901166e-11
2.700000000000000000e+01 1.976744576804715571e-10
2.800000000000000000e+01 6.533545511001098128e-10
2.900000000000000000e+01 1.990320804210332418e-09
3.000000000000000000e+01 5.633651671507815090e-09
3.100000000000000000e+01 1.492157788149399670e-08
3.200000000000000000e+01 3.721183304820279776e-08
3.300000000000000000e+01 8.785144021338839634e-08
3.400000000000000000e+01 1.972885597298081689e-07
3.500000000000000000e+01 4.232401787354964765e-07
3.600000000000000000e+01 8.706558315153579864e-07
3.700000000000000000e+01 1.723244203958999497e-06
3.800000000000000000e+01 3.291549754767875618e-06
3.900000000000000000e+01 6.083955771175040494e-06
4.000000000000000000e+01 1.090850548636602626e-05
4.100000000000000000e+01 1.901501393177896525e-05
4.200000000000000000e+01 3.228851627177282307e-05
4.300000000000000000e+01 5.350658066846976114e-05
4.400000000000000000e+01 8.667431908507423064e-05
4.500000000000000000e+01 1.374519742608202894e-04
4.600000000000000000e+01 2.136906700102894597e-04
4.700000000000000000e+01 3.260922227581577256e-04
4.800000000000000000e+01 4.890087794342741533e-04
4.900000000000000000e+01 7.213974444356464118e-04
5.000000000000000000e+01 1.047943980544390656e-03
5.100000000000000000e+01 1.500368129723304769e-03
5.200000000000000000e+01 2.118921132391538877e-03
5.300000000000000000e+01 2.954083677061541523e-03
5.400000000000000000e+01 4.068469848135372602e-03
5.500000000000000000e+01 5.538939729891888784e-03
5.600000000000000000e+01 7.458920246971856988e-03
5.700000000000000000e+01 9.940930656251964828e-03
5.800000000000000000e+01 1.311930593145098356e-02
5.900000000000000000e+01 1.715310817613387509e-02
6.000000000000000000e+01 2.222921323304017857e-02
6.100000000000000000e+01 2.856555689014332600e-02
6.200000000000000000e+01 3.641452256971931811e-02
6.300000000000000000e+01 4.606645016921197960e-02
6.400000000000000000e+01 5.785324383479685528e-02
6.500000000000000000e+01 7.215205491301386609e-02
6.600000000000000000e+01 8.938901515558016209e-02
6.700000000000000000e+01 1.100429944512730102e-01
6.800000000000000000e+01 1.346493569220586495e-01
6.900000000000000000e+01 1.638036891366283221e-01
7.000000000000000000e+01 1.981654744451813721e-01
7.100000000000000000e+01 2.384616880015900664e-01
7.200000000000000000e+01 2.854902878859384430e-01
7.300000000000000000e+01 3.401235788418926487e-01
7.400000000000000000e+01 4.033114264675538019e-01
7.500000000000000000e+01 4.760843012124700291e-01
7.600000000000000000e+01 5.595561332042289227e-01
7.700000000000000000e+01 6.549269607228711543e-01
7.800000000000000000e+01 7.634853570286733726e-01
7.900000000000000000e+01 8.866106221985970981e-01
8.000000000000000000e+01 1.025774728610731490e+00
8.100000000000000000e+01 1.182544010708424409e+00
8.200000000000000000e+01 1.358580591652921443e+00
8.300000000000000000e+01 1.555643541414129416e+00
8.400000000000000000e+01 1.775589762735077182e+00
8.500000000000000000e+01 2.020374603220783882e+00
8.600000000000000000e+01 2.292052193533049564e+00
8.700000000000000000e+01 2.592775513308138269e+00
8.800000000000000000e+01 2.924796187945496673e+00
8.900000000000000000e+01 3.290464020836032955e+00
9.000000000000000000e+01 3.692226266903200660e+00
9.100000000000000000e+01 4.132626654516399434e+00
9.200000000000000000e+01 4.614304163902707145e+00
9.300000000000000000e+01 5.139991571129828074e+00
9.400000000000000000e+01 5.712513767561811839e+00
9.500000000000000000e+01 6.334785865402217553e+00
9.600000000000000000e+01 7.009811100540170870e+00
9.700000000000000000e+01 7.740678544407752604e+00
9.800000000000000000e+01 8.530560636946912467e+00
9.900000000000000000e+01 9.382710553076346827e+00
1.000000000000000000e+02 1.030045941524896413e+01
1.010000000000000000e+02 1.128721336480478499e+01
1.020000000000000000e+02 1.234645050485899098e+01
1.030000000000000000e+02 1.348171772742580110e+01
1.040000000000000000e+02 1.469662743737313093e+01
1.050000000000000000e+02 1.599485418563620520e+01
1.060000000000000000e+02 1.738013122389674692e+01
1.070000000000000000e+02 1.885624699266416116e+01
1.080000000000000000e+02 2.042704155438175562e+01
1.090000000000000000e+02 2.209640298283029836e+01
1.100000000000000000e+02 2.386826371971816840e+01
1.110000000000000000e+02 2.574659690893707165e+01
1.120000000000000000e+02 2.773541271852971590e+01
1.130000000000000000e+02 2.983875465996448995e+01
1.140000000000000000e+02 3.206069591384796524e+01
1.150000000000000000e+02 3.440533567073013188e+01
1.160000000000000000e+02 3.687679549517610411e+01
1.170000000000000000e+02 3.947921572079214059e+01
1.180000000000000000e+02 4.221675188340822160e+01
1.190000000000000000e+02 4.509357119913506295e+01
1.200000000000000000e+02 4.811384909353448336e+01
1.210000000000000000e+02 5.128176578766812810e+01
1.220000000000000000e+02 5.460150294632587986e+01
1.230000000000000000e+02 5.807724039327968768e+01
1.240000000000000000e+02 6.171315289796577730e+01
1.250000000000000000e+02 6.551340703756780215e+01
1.260000000000000000e+02 6.948215813805563812e+01
1.270000000000000000e+02 7.362354729733326053e+01
1.280000000000000000e+02 7.794169849326100064e+01
1.290000000000000000e+02 8.244071577894632696e+01
1.300000000000000000e+02 8.712468056734167021e+01
1.310000000000000000e+02 9.199764900684935753e+01
1.320000000000000000e+02 9.706364944931051753e+01
1.330000000000000000e+02 1.023266800114497102e+02
1.340000000000000000e+02 1.077907062305570065e+02
1.350000000000000000e+02 1.134596588149179155e+02
1.360000000000000000e+02 1.193374314892425332e+02
1.370000000000000000e+02 1.254278789351083674e+02
1.380000000000000000e+02 1.317348148262028076e+02
1.390000000000000000e+02 1.382620099579444854e+02
1.400000000000000000e+02 1.450131904708677268e+02
1.410000000000000000e+02 1.519920361669732927e+02
1.420000000000000000e+02 1.592021789180843427e+02
1.430000000000000000e+02 1.666472011650936622e+02
1.440000000000000000e+02 1.743306345068487246e+02
1.450000000000000000e+02 1.822559583772956273e+02
1.460000000000000000e+02 1.904265988093870021e+02
1.470000000000000000e+02 1.988459272841583356e+02
1.480000000000000000e+02 2.075172596632820046e+02
1.490000000000000000e+02 2.164438552033305996e+02
1.500000000000000000e+02 2.256289156499066166e+02
1.510000000000000000e+02 2.350755844097343754e+02
1.520000000000000000e+02 2.447869457987582393e+02
1.530000000000000000e+02 2.547660243642445437e+02
1.540000000000000000e+02 2.650157842788484004e+02
1.550000000000000000e+02 2.755391288045784677e+02
1.560000000000000000e+02 2.863388998245668517e+02
1.570000000000000000e+02 2.974178774405417585e+02
1.580000000000000000e+02 3.087787796338819817e+02
1.590000000000000000e+02 3.204242619881360952e+02
1.600000000000000000e+02 3.323569174708856622e+02
1.610000000000000000e+02 3.445792762728384560e+02
1.620000000000000000e+02 3.570938057020507017e+02
1.630000000000000000e+02 3.699029101311861609e+02
1.640000000000000000e+02 3.830089309957443220e+02
1.650000000000000000e+02 3.964141468412085487e+02
1.660000000000000000e+02 4.101207734170881736e+02
1.670000000000000000e+02 4.241309638158605821e+02
1.680000000000000000e+02 4.384468086548451993e+02
1.690000000000000000e+02 4.530703362990764731e+02
1.700000000000000000e+02 4.680035131232758090e+02
1.710000000000000000e+02 4.832482438110599787e+02
1.720000000000000000e+02 4.988063716895599669e+02
1.730000000000000000e+02 5.146796790976645752e+02
1.740000000000000000e+02 5.308698877861426126e+02
1.750000000000000000e+02 5.473786593479394469e+02
1.760000000000000000e+02 5.642075956769846243e+02
1.770000000000000000e+02 5.813582394538922244e+02
1.780000000000000000e+02 5.988320746569771700e+02
1.790000000000000000e+02 6.166305270970525498e+02
1.800000000000000000e+02 6.347549649745211582e+02
1.810000000000000000e+02 6.532066994573169723e+02
1.820000000000000000e+02 6.719869852782913995e+02
1.830000000000000000e+02 6.910970213506901700e+02
1.840000000000000000e+02 7.105379514004072234e+02
1.850000000000000000e+02 7.303108646137410460e+02
1.860000000000000000e+02 7.504167962994313257e+02
1.870000000000000000e+02 7.708567285637877831e+02
1.880000000000000000e+02 7.916315909977660112e+02
1.890000000000000000e+02 8.127422613748952926e+02
1.900000000000000000e+02 8.341895663589901915e+02
1.910000000000000000e+02 8.559742822206320625e+02
1.920000000000000000e+02 8.780971355614326512e+02
1.930000000000000000e+02 9.005588040451464167e+02
1.940000000000000000e+02 9.233599171347173069e+02
1.950000000000000000e+02 9.465010568344025614e+02
1.960000000000000000e+02 9.699827584361373738e+02
1.970000000000000000e+02 9.938055112693472211e+02
1.980000000000000000e+02 1.017969759453449342e+03
1.990000000000000000e+02 1.042475902652316336e+03
2.000000000000000000e+02 1.067324296830006688e+03
2.010000000000000000e+02 1.092515255007107953e+03
2.020000000000000000e+02 1.118049048017057203e+03
2.030000000000000000e+02 1.143925905261841763e+03
2.040000000000000000e+02 1.170146015466513745e+03
2.050000000000000000e+02 1.196709527431973356e+03
2.060000000000000000e+02 1.223616550785514846e+03
2.070000000000000000e+02 1.250867156728641703e+03
2.080000000000000000e+02 1.278461378781699068e+03
2.090000000000000000e+02 1.306399213524884772e+03
2.100000000000000000e+02 1.334680621335232217e+03
2.110000000000000000e+02 1.363305527119179033e+03
2.120000000000000000e+02 1.392273821040355415e+03
2.130000000000000000e+02 1.421585359242257255e+03
2.140000000000000000e+02 1.451239964565478886e+03
2.150000000000000000e+02 1.481237427259211017e+03
2.160000000000000000e+02 1.511577505686720315e+03
2.170000000000000000e+02 1.542259927024555282e+03
2.180000000000000000e+02 1.573284387955232205e+03
2.190000000000000000e+02 1.604650555353180607e+03
2.200000000000000000e+02 1.636358066963738111e+03
2.210000000000000000e+02 1.668406532075005543e+03
2.220000000000000000e+02 1.700795532182387433e+03
2.230000000000000000e+02 1.733524621645654406e+03
2.240000000000000000e+02 1.766593328338381980e+03
2.250000000000000000e+02 1.800001154289641590e+03
2.260000000000000000e+02 1.833747576317808580e+03
2.270000000000000000e+02 1.867832046656395960e+03
2.280000000000000000e+02 1.902253993571810952e+03
2.290000000000000000e+02 1.937012821972953589e+03
2.300000000000000000e+02 1.972107914012582114e+03
2.310000000000000000e+02 2.007538629680390159e+03
2.320000000000000000e+02 2.043304307387737936e+03
2.330000000000000000e+02 2.079404264543995396e+03
2.340000000000000000e+02 2.115837798124466190e+03
2.350000000000000000e+02 2.152604185229867653e+03
2.360000000000000000e+02 2.189702683637351583e+03
2.370000000000000000e+02 2.227132532343049661e+03
2.380000000000000000e+02 2.264892952096148292e+03
2.390000000000000000e+02 2.302983145924503333e+03
2.400000000000000000e+02 2.341402299651794237e+03
2.410000000000000000e+02 2.380149582406241279e+03
2.420000000000000000e+02 2.419224147120915404e+03
2.430000000000000000e+02 2.458625131025662995e+03
2.440000000000000000e+02 2.498351656130682386e+03
2.450000000000000000e+02 2.538402829701793053e+03
2.460000000000000000e+02 2.578777744727443405e+03
2.470000000000000000e+02 2.619475480377499025e+03
2.480000000000000000e+02 2.660495102453872732e+03
2.490000000000000000e+02 2.701835663833046510e+03
2.500000000000000000e+02 2.743496204900550765e+03
2.510000000000000000e+02 2.785475753977454588e+03
2.520000000000000000e+02 2.827773327738950229e+03
2.530000000000000000e+02 2.870387931625083183e+03
2.540000000000000000e+02 2.913318560243707907e+03
2.550000000000000000e+02 2.956564197765750578e+03
2.560000000000000000e+02 3.000123818312835738e+03
2.570000000000000000e+02 3.043996386337383683e+03
2.580000000000000000e+02 3.088180856995226350e+03
2.590000000000000000e+02 3.132676176510856749e+03
2.600000000000000000e+02 3.177481282535366972e+03
2.610000000000000000e+02 3.222595104497180728e+03
2.620000000000000000e+02 3.268016563945655889e+03
2.630000000000000000e+02 3.313744574887652107e+03
2.640000000000000000e+02 3.359778044117139416e+03
2.650000000000000000e+02 3.406115871537950625e+03
2.660000000000000000e+02 3.452756950479764782e+03
2.670000000000000000e+02 3.499700168007401771e+03
2.680000000000000000e+02 3.546944405223540343e+03
2.690000000000000000e+02 3.594488537564920989e+03
2.700000000000000000e+02 3.642331435092160518e+03
2.710000000000000000e+02 3.690471962773236100e+03
2.720000000000000000e+02 3.738908980760763825e+03
2.730000000000000000e+02 3.787641344663136806e+03
2.740000000000000000e+02 3.836667905809626518e+03
2.750000000000000000e+02 3.885987511509546493e+03
2.760000000000000000e+02 3.935599005305553419e+03
2.770000000000000000e+02 3.985501227221197496e+03
2.780000000000000000e+02 4.035693014002791188e+03
2.790000000000000000e+02 4.086173199355708675e+03
2.800000000000000000e+02 4.136940614175190603e+03
2.810000000000000000e+02 4.187994086771754155e+03
2.820000000000000000e+02 4.239332443091290770e+03
2.830000000000000000e+02 4.290954506929947456e+03
2.840000000000000000e+02 4.342859100143878095e+03
2.850000000000000000e+02 4.395045042853945233e+03
2.860000000000000000e+02 4.447511153645465129e+03
2.870000000000000000e+02 4.500256249763101550e+03
2.880000000000000000e+02 4.553279147300941077e+03
2.890000000000000000e+02 4.606578661387898137e+03
2.900000000000000000e+02 4.660153606368491637e+03
2.910000000000000000e+02 4.714002795979094117e+03
2.920000000000000000e+02 4.768125043519725295e+03
2.930000000000000000e+02 4.822519162021475495e+03
2.940000000000000000e+02 4.877183964409657165e+03
2.950000000000000000e+02 4.932118263662724530e+03
2.960000000000000000e+02 4.987320872967083233e+03
2.970000000000000000e+02 5.042790605867839076e+03
2.980000000000000000e+02 5.098526276415568645e+03
2.990000000000000000e+02 5.154526699309205469e+03
3.000000000000000000e+02 5.210790690035084481e+03
3.010000000000000000e+02 5.267317065002247546e+03
3.020000000000000000e+02 5.324104641674076447e+03
3.030000000000000000e+02 5.381152238696300628e+03
3.040000000000000000e+02 5.438458676021499741e+03
3.050000000000000000e+02 5.496022775030115554e+03
3.060000000000000000e+02 5.553843358648089634e+03
3.070000000000000000e+02 5.611919251461162276e+03
3.080000000000000000e+02 5.670249279825917256e+03
3.090000000000000000e+02 5.728832271977632445e+03
3.100000000000000000e+02 5.787667058134999024e+03
3.110000000000000000e+02 5.846752470601784808e+03
3.120000000000000000e+02 5.906087343865488037e+03
3.130000000000000000e+02 5.965670514693051700e+03
3.140000000000000000e+02 6.025500822223708383e+03
3.150000000000000000e+02 6.085577108059004786e+03
3.160000000000000000e+02 6.145898216350064104e+03
3.170000000000000000e+02 6.206462993882150840e+03
3.180000000000000000e+02 6.267270290156588999e+03
3.190000000000000000e+02 6.328318957470106398e+03
3.200000000000000000e+02 6.389607850991631494e+03
3.210000000000000000e+02 6.451135828836628207e+03
3.220000000000000000e+02 6.512901752138998745e+03
3.230000000000000000e+02 6.574904485120618119e+03
3.240000000000000000e+02 6.637142895158551255e+03
3.250000000000000000e+02 6.699615852850007286e+03
3.260000000000000000e+02 6.762322232075065585e+03
3.270000000000000000e+02 6.825260910057244473e+03
3.280000000000000000e+02 6.888430767421935343e+03
3.290000000000000000e+02 6.951830688252786786e+03
3.300000000000000000e+02 7.015459560146028707e+03
3.310000000000000000e+02 7.079316274262857405e+03
3.320000000000000000e+02 7.143399725379836127e+03
3.330000000000000000e+02 7.207708811937452083e+03
3.340000000000000000e+02 7.272242436086788075e+03
3.350000000000000000e+02 7.336999503734399696e+03
3.360000000000000000e+02 7.401978924585439017e+03
3.370000000000000000e+02 7.467179612185029328e+03
3.380000000000000000e+02 7.532600483957980032e+03
3.390000000000000000e+02 7.598240461246837185e+03
3.400000000000000000e+02 7.664098469348346953e+03
3.410000000000000000e+02 7.730173437548326547e+03
3.420000000000000000e+02 7.796464299155025401e+03
3.430000000000000000e+02 7.862969991530978405e+03
3.440000000000000000e+02 7.929689456123397576e+03
3.450000000000000000e+02 7.996621638493153114e+03
3.460000000000000000e+02 8.063765488342344725e+03
3.470000000000000000e+02 8.131119959540534182e+03
3.480000000000000000e+02 8.198684010149634560e+03
3.490000000000000000e+02 8.266456602447524347e+03
3.500000000000000000e+02 8.334436702950393737e+03
3.510000000000000000e+02 8.402623282433854911e+03
3.520000000000000000e+02 8.471015315952867240e+03
3.530000000000000000e+02 8.539611782860494714e+03
3.540000000000000000e+02 8.608411666825482826e+03
3.550000000000000000e+02 8.677413955848789556e+03
3.560000000000000000e+02 8.746617642278974017e+03
3.570000000000000000e+02 8.816021722826566474e+03
3.580000000000000000e+02 8.885625198577383344e+03
3.590000000000000000e+02 8.955427075004863582e+03
3.600000000000000000e+02 9.025426361981391892e+03
3.610000000000000000e+02 9.095622073788708803e+03
3.620000000000000000e+02 9.166013229127374871e+03
3.630000000000000000e+02 9.236598851125314468e+03
3.640000000000000000e+02 9.307377967345513753e+03
3.650000000000000000e+02 9.378349609792825504e+03
3.660000000000000000e+02 9.449512814919979064e+03
3.670000000000000000e+02 9.520866623632731716e+03
3.680000000000000000e+02 9.592410081294274278e+03
3.690000000000000000e+02 9.664142237728832697e+03
3.700000000000000000e+02 9.736062147224540240e+03
3.710000000000000000e+02 9.808168868535576621e+03
3.720000000000000000e+02 9.880461464883594090e+03
3.730000000000000000e+02 9.952939003958465037e+03
3.740000000000000000e+02 1.002560055791834020e+04
3.750000000000000000e+02 1.009844520338908114e+04
3.760000000000000000e+02 1.017147202146303971e+04
3.770000000000000000e+02 1.024468009769721903e+04
3.780000000000000000e+02 1.031806852211087426e+04
3.790000000000000000e+02 1.039163638918246033e+04
3.800000000000000000e+02 1.046538279784609949e+04
3.810000000000000000e+02 1.053930685148743578e+04
3.820000000000000000e+02 1.061340765793900209e+04
3.830000000000000000e+02 1.068768432947501424e+04
3.840000000000000000e+02 1.076213598280573933e+04
3.850000000000000000e+02 1.083676173907131306e+04
3.860000000000000000e+02 1.091156072383512765e+04
3.870000000000000000e+02 1.098653206707671234e+04
3.880000000000000000e+02 1.106167490318424279e+04
3.890000000000000000e+02 1.113698837094655391e+04
3.900000000000000000e+02 1.121247161354476157e+04
3.910000000000000000e+02 1.128812377854348233e+04
3.920000000000000000e+02 1.136394401788167488e+04
3.930000000000000000e+02 1.143993148786306119e+04
3.940000000000000000e+02 1.151608534914621669e+04
3.950000000000000000e+02 1.159240476673431476e+04
3.960000000000000000e+02 1.166888890996446753e+04
3.970000000000000000e+02 1.174553695249681186e+04
3.980000000000000000e+02 1.182234807230322622e+04
3.990000000000000000e+02 1.189932145165572911e+04
4.000000000000000000e+02 1.197645627711463385e+04
4.010000000000000000e+02 1.205375173951633587e+04
4.020000000000000000e+02 1.213120703396090357e+04
4.030000000000000000e+02 1.220882135979931991e+04
4.040000000000000000e+02 1.228659392062051484e+04
4.050000000000000000e+02 1.236452392423814308e+04
4.060000000000000000e+02 1.244261058267709632e+04
4.070000000000000000e+02 1.252085311215979709e+04
